 # RK4 1D, Monoparticle, time independent Schrödinger Eq
 # Energy Eigenvalues and Eigenvectors
 # Not Eigenvalues
  -7.0000000000000000        7.3640077301579931E-008   2.1056671188149329E-006
  -6.9649122807017543        1.5141671465084350E-007   2.2344544090444443E-006
  -6.9298245614035086        2.3419500998155768E-007   2.3885685101310252E-006
  -6.8947368421052628        3.2292419851472357E-007   2.5705386716199061E-006
  -6.8596491228070171        4.1864981213093378E-007   2.7832538323718902E-006
  -6.8245614035087723        5.2252724468758854E-007   3.0300045571692593E-006
  -6.7894736842105265        6.3583690673902837E-007   3.3145304195337685E-006
  -6.7543859649122808        7.6000117549636338E-007   3.6410734970088062E-006
  -6.7192982456140351        8.9660337108248001E-007   4.0144387293766512E-006
  -6.6842105263157894        1.0474090185415529E-006   4.4400619849556270E-006
  -6.6491228070175437        1.2143896870469599E-006   4.9240867865617007E-006
  -6.6140350877192979        1.3997497337619781E-006   5.4734507683989351E-006
  -6.5789473684210531        1.6059563203449551E-006   6.0959830697213757E-006
  -6.5438596491228074        1.8357731157184873E-006   6.8005140224504409E-006
  -6.5087719298245617        2.0922981500747004E-006   7.5969986601344683E-006
  -6.4736842105263159        2.3790063428796064E-006   8.4966557670603567E-006
  -6.4385964912280702        2.6997972926715268E-006   9.5121244016253363E-006
  -6.4035087719298245        3.0590489896249913E-006   1.0657640070235354E-005
  -6.3684210526315788        3.4616781941885048E-006   1.1949233000373575E-005
  -6.3333333333333330        3.9132083177453590E-006   1.3404951267855679E-005
  -6.2982456140350873        4.4198457454773842E-006   1.5045111877907277E-005
  -6.2631578947368425        4.9885656588790539E-006   1.6892583287342763E-005
  -6.2280701754385968        5.6272085473014047E-006   1.8973103291171182E-005
  -6.1929824561403510        6.3445887463328914E-006   2.1315636687451477E-005
  -6.1578947368421053        7.1506165078075058E-006   2.3952777685970512E-005
  -6.1228070175438596        8.0564352940865396E-006   2.6921202646975801E-005
  -6.0877192982456139        9.0745762005960914E-006   3.0262179434370129E-005
  -6.0526315789473681        1.0219131648350309E-005   3.4022140453151321E-005
  -6.0175438596491233        1.1505950755649247E-005   3.8253327324350981E-005
  -5.9824561403508767        1.2952859099021162E-005   4.3014516144544902E-005
  -5.9473684210526319        1.4579905911956386E-005   4.8371833394959320E-005
  -5.9122807017543861        1.6409642150749809E-005   5.4399673822786209E-005
  -5.8771929824561404        1.8467433285113773E-005   6.1181733031989054E-005
  -5.8421052631578947        2.0781811153085205E-005   6.8812169112246496E-005
  -5.8070175438596490        2.3384869761814605E-005   7.7396909424813751E-005
  -5.7719298245614041        2.6312710525609196E-005   8.7055120677803294E-005
  -5.7368421052631575        2.9605943118566623E-005   9.7920862688620123E-005
  -5.7017543859649127        3.3310248890793349E-005   1.1014494877943924E-004
  -5.6666666666666670        3.7477014665256254E-005   1.2389703861801201E-004
  -5.6315789473684212        4.2164045708805574E-005   1.3936799254046935E-004
  -5.5964912280701755        4.7436367769374644E-005   1.5677252001984889E-004
  -5.5614035087719298        5.3367129307039217E-005   1.7635215902408064E-004
  -5.5263157894736841        6.0038616436641454E-005   1.9837862759666632E-004
  -5.4912280701754383        6.7543394663323493E-005   2.2315759415587560E-004
  -5.4561403508771935        7.5985593251252226E-005   2.5103291881548940E-004
  -5.4210526315789469        8.5482350044434362E-005   2.8239142456239165E-004
  -5.3859649122807021        9.6165436784246939E-005   3.1766826447412739E-004
  -5.3508771929824563        1.0818308747199233E-004   3.5735295942466311E-004
  -5.3157894736842106        1.2170205514112697E-004   4.0199619002344479E-004
  -5.2807017543859649        1.3690992557183703E-004   4.5221743699014929E-004
  -5.2456140350877192        1.5401772004423531E-004   5.0871357592999656E-004
  -5.2105263157894743        1.7326282323500242E-004   5.7226854570488939E-004
  -5.1754385964912277        1.9491227687131339E-004   6.4376422447699365E-004
  -5.1403508771929829        2.1926648482782583E-004   7.2419266423945762E-004
  -5.1052631578947372        2.4666338105758592E-004   8.1466985347520378E-004
  -5.0701754385964914        2.7748311816491202E-004   9.1645119875927877E-004
  -5.0350877192982457        3.1215334164646423E-004   1.0309489399356480E-003
  -5.0000000000000000        3.5115512294567813E-004   1.1597517402844376E-003
  -4.9649122807017543        3.9502963359785146E-004   1.3046467232201700E-003
  -4.9298245614035086        4.4438565301471727E-004   1.4676442609411139E-003
  -4.8947368421052637        4.9990801401032477E-004   1.6510058585516303E-003
  -4.8596491228070171        5.6236710316415325E-004   1.8572755200284047E-003
  -4.8245614035087723        6.3262954773212268E-004   2.0893150305878335E-003
  -4.7894736842105265        7.1167023725337176E-004   2.3503436441986991E-003
  -4.7543859649122808        8.0058584648724188E-004   2.6439827259168128E-003
  -4.7192982456140351        9.0061004710590038E-004   2.9743059672337107E-003
  -4.6842105263157894        1.0131306189501603E-003   3.3458958696703221E-003
  -4.6491228070175445        1.1397086979515591E-003   3.7639072784652751E-003
  -4.6140350877192979        1.2821004273948086E-003   4.2341388455927158E-003
  -4.5789473684210531        1.4422813124483464E-003   4.7631134108286725E-003
  -4.5438596491228074        1.6224736152842183E-003   5.3581684126641077E-003
  -4.5087719298245617        1.8251771701557910E-003   6.0275575792162854E-003
  -4.4736842105263159        2.0532040450800941E-003   6.7805653048027617E-003
  -4.4385964912280702        2.3097175299293944E-003   7.6276352926291915E-003
  -4.4035087719298245        2.5982759905022351E-003   8.5805152404758792E-003
  -4.3684210526315788        2.9228821953354973E-003   9.6524195670095805E-003
  -4.3333333333333339        3.2880387975544141E-003   1.0858212424380056E-002
  -4.2982456140350873        3.6988107389677380E-003   1.2214613521429496E-002
  -4.2631578947368425        4.1608954390575459E-003   1.3740429594894129E-002
  -4.2280701754385968        4.6807017387858023E-003   1.5456814717608109E-002
  -4.1929824561403510        5.2654386896994095E-003   1.7387563027628821E-002
  -4.1578947368421053        5.9232154142957955E-003   1.9559437905648281E-002
  -4.1228070175438596        6.6631534158439363E-003   2.2002542125918803E-002
  -4.0877192982456148        7.4955128868944409E-003   2.4750734064777097E-002
  -4.0526315789473681        8.4318347578578035E-003   2.7842095678044666E-002
  -4.0175438596491233        9.4851004428594208E-003   3.1319458662314309E-002
  -3.9824561403508776        1.0669911482479075E-002   3.5230996004550895E-002
  -3.9473684210526319        1.2002691555180951E-002   3.9630887009737138E-002
  -3.9122807017543861        1.3501913634850295E-002   4.4580064888838117E-002
  -3.8771929824561404        1.5188355414913476E-002   5.0147057101776076E-002
  -3.8421052631578947        1.7085386504542180E-002   5.6408929896439482E-002
  -3.8070175438596494        1.9219291334468439E-002   6.3452349880579642E-002
  -3.7719298245614037        2.1619632194587433E-002   7.1374777026043501E-002
  -3.7368421052631580        2.4319657369067282E-002   8.0285805253262427E-002
  -3.7017543859649127        2.7356759944100879E-002   9.0308668699370903E-002
  -3.6666666666666670        3.0772993546493203E-002  0.10158193395903505     
  -3.6315789473684212        3.4615652036613292E-002  0.11426140102862148     
  -3.5964912280701755        3.8937921036439900E-002  0.12852223840981011     
  -3.5614035087719298        4.3799610133121662E-002  0.14456138086886347     
  -3.5263157894736845        4.9267975672420770E-002  0.16260022173599670     
  -3.4912280701754388        5.5418645257614293E-002  0.18288763540201347     
  -3.4561403508771931        6.2336656412227902E-002  0.20570336986590768     
  -3.4210526315789478        7.0117623365152801E-002  0.23136185384977290     
  -3.3859649122807021        7.8869047591572289E-002  0.26021646817132660     
  -3.3508771929824563        8.8711789611665315E-002  0.29266433679762316     
  -3.3157894736842106        9.9781721631958795E-002  0.32915169934656002     
  -3.2807017543859649       0.11223158293397331       0.37017993380806646     
  -3.2456140350877196       0.12623306249581598       0.41631230597825464     
  -3.2105263157894739       0.14197913620087521       0.46818153059157225     
  -3.1754385964912282       0.15968668917189088       0.52649823845150601     
  -3.1403508771929829       0.17959945729833646       0.59206045405040131     
  -3.1052631578947372       0.20199132593183533       0.66576419927934560     
  -3.0701754385964914       0.22717002804123576       0.74861535089780129     
  -3.0350877192982457       0.25548128888002813       0.84174289248609679     
  -3.0000000000000000       0.28731346945857522       0.94641371565184951     
  -2.9649122807017543       0.32310276686652128        1.0640491402912231     
  -2.9298245614035086       0.36333903578997839        1.1962433396748271     
  -2.8947368421052637       0.40857230244446185        1.3447838729538104     
  -2.8596491228070180       0.45942004962479205        1.5116745452310112     
  -2.8245614035087723       0.51657535967785118        1.6991608334165511     
  -2.7894736842105265       0.58081601094486823        1.9097581344063803     
  -2.7543859649122808       0.65301463259629211        2.1462831103024804     
  -2.7192982456140351       0.73415003277740498        2.4118884229235089     
  -2.6842105263157894       0.82531982555820349        2.7101011660662833     
  -2.6491228070175445       0.92775449327050230        3.0448653180113703     
  -2.6140350877192988        1.0428330323169948        3.4205885475273234     
  -2.5789473684210531        1.1721003423047698        3.8421937127450927     
  -2.5438596491228074        1.3172865301874850        4.3151753920404303     
  -2.5087719298245617        1.4803283127252271        4.8456617773763355     
  -2.4736842105263159        1.6633927116341929        5.4404822408554123     
  -2.4385964912280702        1.8689032458428547        6.1072408514119427     
  -2.4035087719298245        2.0995688337179645        6.8543960669176114     
  -2.3684210526315788        2.3584156242474785        7.6913467530675472     
  -2.3333333333333339        2.6488219790712333        8.6285245790615459     
  -2.2982456140350882        2.9745568258363320        9.6774927052559487     
  -2.2631578947368425        3.3398215962936679        10.851050502685016     
  -2.2280701754385968        3.7492959482522585        12.163343820751013     
  -2.1929824561403510        4.2081874470809648        13.629980038650498     
  -2.1578947368421053        4.7222853476789561        15.268146788582989     
  -2.1228070175438596        5.2980185691621449        17.096732814134224     
  -2.0877192982456148        5.9425178890002259        19.136448914692238     
  -2.0526315789473690        6.6636822976844474        21.409946315627820     
  -2.0175438596491233        7.4702493455523511        23.941929084213282     
  -1.9824561403508776        8.3718691761763679        26.759256374392653     
  -1.9473684210526319        9.3791817715471240        29.891029323843203     
  -1.9122807017543861        10.503896728867142        33.368656342891072     
  -1.8771929824561404        11.758874642939929        37.225889331650698     
  -1.8421052631578947        13.158208878099003        41.498822052813829     
  -1.8070175438596490        14.717306176328272        46.225840497900435     
  -1.7719298245614041        16.452964161865104        51.447513654335985     
  -1.7368421052631584        18.383443367160258        57.206411667552103     
  -1.7017543859649127        20.528530923147589        63.546837076432332     
  -1.6666666666666670        22.909592534285036        70.514453687130839     
  -1.6315789473684212        25.549608806017588        78.155796872834742     
  -1.5964912280701755        28.473191424745202        86.517648807991606     
  -1.5614035087719298        31.706574129916088        95.646262555989267     
  -1.5263157894736850        35.277572893552239        105.58642024501452     
  -1.4912280701754392        39.215509271220562        116.38031302020117     
  -1.4561403508771935        43.551090555124702        128.06623428693300     
  -1.4210526315789478        48.316240197239139        140.67708318000945     
  -1.3859649122807021        53.543872037361538        154.23868238406371     
  -1.3508771929824563        59.267602230989581        168.76792349558215     
  -1.3157894736842106        65.521393489160147        184.27076404773030     
  -1.2807017543859649        72.339127376871701        200.74011295562360     
  -1.2456140350877192        79.754102018253320        218.15365513085419     
  -1.2105263157894743        87.798454657514327        236.47168078729837     
  -1.1754385964912286        96.502511131632986        255.63499970394591     
  -1.1403508771929829        105.89406739688307        275.56303437946008     
  -1.1052631578947372        115.99761174915804        296.15219736308842     
  -1.0701754385964914        126.83350017445180        317.27466570366312     
  -1.0350877192982457        138.41710120020528        338.77766802599666     
  -1.0000000000000000        150.75793048526791        360.48339594179390     
 -0.96491228070175517        163.85879894408666        382.18964032916506     
 -0.92982456140350944        177.71500118467375        403.67123391733827     
 -0.89473684210526372        192.31357318129261        424.68235463657595     
 -0.85964912280701800        207.63264915218886        444.95971009048327     
 -0.82456140350877227        223.64094736480084        464.22658378027450     
 -0.78947368421052655        240.29741290880935        482.19768056285761     
 -0.75438596491228083        257.55104231289005        498.58466502554478     
 -0.71929824561403510        275.34091028790237        513.10224511587671     
 -0.68421052631578938        293.59641301738321        525.47461762674425     
 -0.64912280701754455        312.23773554507670        535.44206487876704     
 -0.61403508771929882        331.17654327081857        542.76747545124044     
 -0.57894736842105310        350.31688975891660        547.24255753841339     
 -0.54385964912280738        369.55632541013455        548.69352190038023     
 -0.50877192982456165        388.78718446227163        546.98603184861236     
 -0.47368421052631593        407.89802163484569        542.02924870499987     
 -0.43859649122807021        426.77516481952307        533.77884037388230     
 -0.40350877192982537        445.30434674838409        522.23886522825637     
 -0.36842105263157965        463.37237665533263        507.46249037882149     
 -0.33333333333333393        480.86881259017287        489.55154959390410     
 -0.29824561403508820        497.68759616690420        468.65498903363704     
 -0.26315789473684248        513.72861396880319        444.96628644527220     
 -0.22807017543859676        528.89915337857360        418.71996006936286     
 -0.19298245614035103        543.11522500437309        390.18730642936367     
 -0.15789473684210531        556.30272887167644        359.67152125014110     
 -0.12280701754385959        568.39844689288850        327.50236534059167     
  -8.7719298245614752E-002   579.35084957878564        294.03053815903814     
  -5.2631578947369029E-002   589.12071031731523        259.62191700571873     
  -1.7543859649123306E-002   597.68152565272942        224.65181053949033     
   1.7543859649122417E-002   605.01974472773600        189.49936279944816     
   5.2631578947368141E-002   611.13481531781304        154.54222925539491     
   8.7719298245613864E-002   616.03905763894420        120.15163060255483     
  0.12280701754385959        619.75738032579466        86.687873865690293     
  0.15789473684210442        622.32685565779229        54.496414503502542     
  0.19298245614035014        623.79617327370886        23.904518037014089     
  0.22807017543859587        624.22499329050231       -4.7814344692706783     
  0.26315789473684159        623.68322096534689       -31.277965837729354     
  0.29824561403508731        622.25022584979672       -55.325827845805748     
  0.33333333333333304        620.01402882107925       -76.690623523289176     
  0.36842105263157876        617.07048047562103       -95.162728100312634     
  0.40350877192982448        613.52245417045776       -110.55651888315242     
  0.43859649122807021        609.47907653425671       -122.70893224759929     
  0.47368421052631504        605.05501757602087       -131.47737289644712     
  0.50877192982456076        600.36986163187657       -136.73700646060263     
  0.54385964912280649        595.54757934684790       -138.37747130878009     
  0.57894736842105221        590.71611973122674       -136.29904889649168     
  0.61403508771929793        586.00714010701654       -130.40833392490242     
  0.64912280701754366        581.55589052149605       -120.61344577437045     
  0.68421052631578938        577.50126801036447       -106.81882091678911     
  0.71929824561403422        573.98605500540987       -88.919622121003471     
  0.75438596491227994        571.15735526830838       -66.795794130084744     
  0.78947368421052566        569.16724006239474       -40.305787066636412     
  0.82456140350877138        568.17361691770714       -9.2799581557725617     
  0.85964912280701711        568.34133336913942        26.486350426921945     
  0.89473684210526283        569.84352851712629        67.240074469793569     
  0.92982456140350855        572.86324623344842        113.27806463616690     
  0.96491228070175428        577.59532536333859        164.95514831485102     
   1.0000000000000000        584.24858440388130        222.69268613199995     
  
  
 # Not Eigenvalues
  -7.0000000000000000        7.3528053680913099E-008   2.1022433602350746E-006
  -6.9649122807017543        1.5105258363395447E-007   2.2266588865434012E-006
  -6.9298245614035086        2.3340164206701183E-007   2.3753010830955302E-006
  -6.8947368421052628        3.2148148888011968E-007   2.5505203193353917E-006
  -6.8596491228070171        4.1628772149671348E-007   2.7549959761591055E-006
  -6.8245614035087723        5.1891765933212948E-007   2.9917738541783518E-006
  -6.7894736842105265        6.3058414355904727E-007   3.2643083484583097E-006
  -6.7543859649122808        7.5263093197791783E-007   3.5765099595635579E-006
  -6.7192982456140351        8.8654989033078937E-007   3.9327987813132654E-006
  -6.6842105263157894        1.0340002055912376E-006   4.3381646847840209E-006
  -6.6491228070175437        1.1968298739449724E-006   4.7982350068567046E-006
  -6.6140350877192979        1.3770997467084792E-006   5.3193506511631022E-006
  -6.5789473684210531        1.5771104517247019E-006   5.9086516209728835E-006
  -6.5438596491228074        1.7994325462831866E-006   6.5741731288580448E-006
  -6.5087719298245617        2.0469403008513498E-006   7.3249535685474758E-006
  -6.4736842105263159        2.3228495614505984E-006   8.1711557921100443E-006
  -6.4385964912280702        2.6307601930135570E-006   9.1242033125802514E-006
  -6.4035087719298245        2.9747036672436219E-006   1.0196933250722331E-005
  -6.3684210526315788        3.3591964271813449E-006   1.1403768067460812E-005
  -6.3333333333333330        3.7892997377795321E-006   1.2760908373555388E-005
  -6.2982456140350873        4.2706868183282234E-006   1.4286549388695209E-005
  -6.2631578947368425        4.8097181497054348E-006   1.6001123937069512E-005
